# time,x(N),y(E),z(D),psi
0.000000000000000000e+00,-8.472703458934730288e-17,-3.426554526035079786e-16,-2.000000000000000000e+00,7.730197621740570015e-16
3.514177607999170033e-02,-1.526888232576590032e-16,-6.894947453705100419e-16,-2.000000000000000000e+00,1.547654943099919953e-15
7.028355215998340066e-02,-1.904990648987210137e-05,-1.921753718106570128e-05,-2.000382399501530184e+00,7.777925305365560081e-04
1.054253282399749969e-01,-2.260897735120609995e-04,-2.269494838042230005e-04,-2.000854689900529948e+00,1.146701564999070069e-03
1.405671043199669956e-01,-9.529404495656800325e-04,-9.563260260669469593e-04,-2.001247067713650019e+00,-1.509762335046000001e-04
1.757088803999589943e-01,-2.622339348918620132e-03,-2.631913666668790099e-03,-2.002782075380099780e+00,-2.925600774130480194e-03
2.108506564799499938e-01,-5.727667203426140170e-03,-5.749152750459229910e-03,-2.006709958187689935e+00,-6.859154413606740122e-03
2.459924325599419925e-01,-1.079729887161150030e-02,-1.083808239426669977e-02,-2.013959425255869906e+00,-1.177792660340180007e-02
2.811342086399339912e-01,-1.837842127314150142e-02,-1.844674561664750093e-02,-2.025193871124220113e+00,-1.759170431459130060e-02
3.162759847199250185e-01,-2.902304266730980006e-02,-2.912693444732769935e-02,-2.040846078071560044e+00,-2.425954963815729962e-02
3.514177607999169894e-01,-4.327524461086239976e-02,-4.342129873176559657e-02,-2.061141751941959921e+00,-3.177005756318890262e-02
3.865595368799090159e-01,-6.165913521448929818e-02,-6.185125168213839730e-02,-2.086116605908120203e+00,-4.012986294834639672e-02
4.217013129599009869e-01,-8.466713261610220309e-02,-8.490528191281830617e-02,-2.115629389216690193e+00,-4.935696416944439918e-02
4.568430890398920141e-01,-1.127584269885199969e-01,-1.130330755850730007e-01,-2.149407878533919902e+00,-5.922197732178090257e-02
4.919848651198839851e-01,-1.463204148724190079e-01,-1.465665691791349923e-01,-2.187042704138329796e+00,-6.700894825851790026e-02
5.271266411998759560e-01,-1.854780817896390099e-01,-1.855295712632530070e-01,-2.227847256177359903e+00,-6.959134369529260122e-02
5.622684172798679825e-01,-2.299651486476889939e-01,-2.295665137189289995e-01,-2.270873111337010197e+00,-6.666103332892399369e-02
5.974101933598590097e-01,-2.792479136736910061e-01,-2.780981282699240276e-01,-2.315190694489940082e+00,-6.041752545876440117e-02
6.325519694398510362e-01,-3.326881557997989902e-01,-3.304910704745119832e-01,-2.359989647990190065e+00,-5.386502637001600036e-02
6.676937455198429516e-01,-3.896459387391290052e-01,-3.861360336851870079e-01,-2.404464340750319895e+00,-4.820895466273390079e-02
7.028355215998339789e-01,-4.495965860918770263e-01,-4.445346970623559879e-01,-2.448034034105469825e+00,-4.325933726439459837e-02
7.379772976798260053e-01,-5.121224985376050531e-01,-5.052897375665309498e-01,-2.490376106694410119e+00,-3.876491158950959998e-02
7.731190737598180318e-01,-5.768402933624370288e-01,-5.680369611689000120e-01,-2.531204506962959844e+00,-3.460299007540319771e-02
8.082608498398099472e-01,-6.433993677769469510e-01,-6.324433900826570421e-01,-2.570291125791530185e+00,-3.074310506462630058e-02
8.434026259198009745e-01,-7.114783368852419798e-01,-6.982033321064999853e-01,-2.607487413368990037e+00,-2.722402993397389850e-02
8.785444019997930010e-01,-7.807788949016519764e-01,-7.650320694643759634e-01,-2.642742308993109912e+00,-2.413714969818400030e-02
9.136861780797850274e-01,-8.510112026032370380e-01,-8.326538411763849679e-01,-2.676027508227130092e+00,-2.165029242736810078e-02
9.488279541597770539e-01,-9.218844447262980468e-01,-9.008034018912960406e-01,-2.707172301629829914e+00,-2.006709396634950154e-02
9.839697302397679701e-01,-9.931325247740739881e-01,-9.692536864758189985e-01,-2.735874575905650197e+00,-1.958236570699140033e-02
1.019111506319759997e+00,-1.064554834780770065e+00,-1.037836427889500035e+00,-2.762236065288119935e+00,-1.982766875427929842e-02
1.054253282399749914e+00,-1.136038471252440063e+00,-1.106451403583700088e+00,-2.786668411252729793e+00,-2.022501449869890111e-02
1.089395058479740053e+00,-1.207550494553780052e+00,-1.175070591586149904e+00,-2.809391239678530106e+00,-2.057536708238020054e-02
1.124536834559739962e+00,-1.279083071422630002e+00,-1.243698015252769906e+00,-2.830520420863409825e+00,-2.083168870196469916e-02
1.159678610639730101e+00,-1.350626689637969946e+00,-1.312341055489790076e+00,-2.850146632908100219e+00,-2.095952289176879896e-02
1.194820386719720018e+00,-1.422171005930080057e+00,-1.381008223893180009e+00,-2.868358661855769931e+00,-2.093839568997049941e-02
1.229962162799709935e+00,-1.493702909270230084e+00,-1.449709453119669922e+00,-2.885243984891959990e+00,-2.075074963384460069e-02
1.265103938879700074e+00,-1.565206124690889933e+00,-1.518456144191870028e+00,-2.900888809119570144e+00,-2.038117003360830071e-02
1.300245714959689991e+00,-1.636660907662240039e+00,-1.587262099890520028e+00,-2.915378232700939876e+00,-1.981211944502719868e-02
1.335387491039689900e+00,-1.708050329445560012e+00,-1.656145214444769920e+00,-2.928785930750890110e+00,-1.896853609115689912e-02
1.370529267119680039e+00,-1.779350905163969987e+00,-1.725128635365289931e+00,-2.941123298678089970e+00,-1.763491709296539922e-02
1.405671043199669956e+00,-1.850472807826250010e+00,-1.794241282902939938e+00,-2.952546228644629789e+00,-1.581030213360740122e-02
1.440812819279660095e+00,-1.921218745649180049e+00,-1.863504920145840016e+00,-2.963079402651429994e+00,-1.370725748151539920e-02
1.475954595359650012e+00,-1.991326248073610028e+00,-1.932924215634090004e+00,-2.972411308701190080e+00,-1.144574869414500054e-02
1.511096371439639929e+00,-2.060512624380329783e+00,-2.002497849037359945e+00,-2.980320425712950083e+00,-9.135804960324700810e-03
1.546238147519640060e+00,-2.128476485406119778e+00,-2.072225441226669851e+00,-2.986806640678770108e+00,-6.975236763617970182e-03
1.581379923599629977e+00,-2.194889774168970131e+00,-2.142102337415160207e+00,-2.992031988222970007e+00,-5.188431096637799618e-03
1.616521699679619894e+00,-2.259402005837650051e+00,-2.212093914079289902e+00,-2.996214383449499863e+00,-3.911221314202880175e-03
1.651663475759610034e+00,-2.321632066314919918e+00,-2.282101310874959932e+00,-2.999637989516770187e+00,-3.235438898285169975e-03
1.686805251839599951e+00,-2.381149783190480207e+00,-2.351942300667400065e+00,-3.002703542271070170e+00,-3.247759686101670071e-03
1.721947027919590090e+00,-2.437460807983450106e+00,-2.421352355705519876e+00,-3.005943411583699820e+00,-3.995484975236419933e-03
1.757088803999589999e+00,-2.489999976724039943e+00,-2.489999977500870099e+00,-3.009999943472859929e+00,-5.474004075111170084e-03
1.821173818492340057e+00,-2.574308815972349951e+00,-2.612092393360430087e+00,-3.020913317433009837e+00,-9.872498258595709467e-03
1.885258832985089894e+00,-2.641603761124780014e+00,-2.728726357944419867e+00,-3.036217024093700090e+00,-1.615859528436820042e-02
1.949343847477839953e+00,-2.689623009893639782e+00,-2.838554583077240068e+00,-3.054962954803030151e+00,-2.268183055119120037e-02
2.013428861970589789e+00,-2.716562795169589872e+00,-2.940559479417789834e+00,-3.076004228869940071e+00,-2.643461000189159874e-02
2.077513876463339848e+00,-2.721607791439850210e+00,-3.034010115547749908e+00,-3.098127350194419982e+00,-2.548451136072280021e-02
2.141598890956089907e+00,-2.705056872764230125e+00,-3.118415631095480034e+00,-3.120268600929899883e+00,-1.963070426187879872e-02
2.205683905448839965e+00,-2.668105354609029867e+00,-3.193493474379789809e+00,-3.141636487257430055e+00,-9.650634815698250213e-03
2.269768919941590024e+00,-2.612581636279569963e+00,-3.259159077594799836e+00,-3.161718702841589845e+00,3.054965431068120199e-03
2.333853934434340083e+00,-2.540663252327110211e+00,-3.315510690726439780e+00,-3.180278176328879880e+00,1.639164166539590003e-02
2.397938948927090141e+00,-2.454616326401569903e+00,-3.362837483992150212e+00,-3.197199863238830098e+00,2.915113122707490081e-02
2.462023963419840200e+00,-2.356638565037830091e+00,-3.401614110787650080e+00,-3.212367345653320161e+00,4.108121287854470116e-02
2.526108977912589815e+00,-2.248832336177890134e+00,-3.432465780451880111e+00,-3.225693829793740086e+00,5.207051436758369789e-02
2.590193992405339873e+00,-2.133215422272920048e+00,-3.456143301548700197e+00,-3.237143812973979795e+00,6.201883664078949865e-02
2.654279006898089932e+00,-2.011737300893590152e+00,-3.473506809979490129e+00,-3.246747143148509984e+00,7.083376064487779955e-02
2.718364021390839991e+00,-1.886277175391900096e+00,-3.485502282349119962e+00,-3.254677797876269985e+00,7.806230311288170354e-02
2.782449035883590049e+00,-1.758552747228790070e+00,-3.493139013338010024e+00,-3.261266308876490161e+00,8.322715298911340098e-02
2.846534050376340108e+00,-1.629903985277959988e+00,-3.497456032822920058e+00,-3.266844265567069971e+00,8.650995510127469645e-02
2.910619064869090167e+00,-1.501110543451440016e+00,-3.499451479799629894e+00,-3.271632086151110119e+00,8.864612529885169956e-02
2.974704079361839781e+00,-1.372410813382249906e+00,-3.499999994388060198e+00,-3.275752577595489878e+00,9.042006987918750627e-02
3.038789093854589840e+00,-1.243760818556920000e+00,-3.499796284548560177e+00,-3.279269488575990099e+00,9.215347614536879839e-02
3.102874108347339899e+00,-1.115100263278179904e+00,-3.499342800990420166e+00,-3.282207598605599852e+00,9.387427094875340494e-02
3.166959122840089957e+00,-9.864043516456649785e-01,-3.498962342318709950e+00,-3.284566711460739974e+00,9.557799623266309552e-02
3.231044137332840016e+00,-8.576602679890279468e-01,-3.498822740125670183e+00,-3.286332252496610096e+00,9.726375058198699630e-02
3.295129151825590075e+00,-7.288623266524869582e-01,-3.498963534979540047e+00,-3.287482647965310090e+00,9.893092266186080674e-02
3.359214166318340133e+00,-6.000159021587330166e-01,-3.499319462634089994e+00,-3.287993176628389858e+00,1.005791521240560066e-01
3.423299180811090192e+00,-4.711353568622230203e-01,-3.499739119167850188e+00,-3.287837768292929841e+00,1.022079505429649982e-01
3.487384195303839807e+00,-3.422432066827050257e-01,-3.499999539462350207e+00,-3.286989450398989820e+00,1.038173124075219972e-01
3.551469209796589865e+00,-2.133693520543429867e-01,-3.499817540135030214e+00,-3.285420438269520016e+00,1.054076906293589938e-01
3.615554224289339924e+00,-8.455042093837479567e-02,-3.498859147821240079e+00,-3.283102247101290061e+00,1.069801322972999957e-01
3.679639238782089983e+00,4.417087746336800097e-02,-3.496748146482090203e+00,-3.280005418460330002e+00,1.085363433770119984e-01
3.743724253274840041e+00,1.727463775256010137e-01,-3.493073757128319912e+00,-3.276098930450840108e+00,1.100787650816320018e-01
3.807809267767590100e+00,3.011230076111289788e-01,-3.487397161248099842e+00,-3.271349713072780219e+00,1.116106352136430058e-01
3.871894282260340159e+00,4.292432527407640253e-01,-3.479256913233040205e+00,-3.265722244342390113e+00,1.131360174193419971e-01
3.935979296753090217e+00,5.570455365506460366e-01,-3.468173440674250152e+00,-3.259178246152989900e+00,1.146598899499420010e-01
4.000064311245839832e+00,6.844645259435570006e-01,-3.453652858520159796e+00,-3.251676490420630117e+00,1.161880721292140040e-01
4.064149325738590335e+00,8.114313822871740411e-01,-3.435190309388690189e+00,-3.243172720630859818e+00,1.177275290866010016e-01
4.128234340231339949e+00,9.378739439595780158e-01,-3.412273032598239997e+00,-3.233619704755759994e+00,1.192858348562210041e-01
4.192319354724089564e+00,1.063716902761669969e+00,-3.384383343169449887e+00,-3.222967428754779817e+00,1.208724670311100008e-01
4.256404369216840067e+00,1.188881892949489982e+00,-3.351001727119419904e+00,-3.211163475405450107e+00,1.224962987898139954e-01
4.320489383709589681e+00,1.313287686649690089e+00,-3.311610232368369822e+00,-3.198153599117619983e+00,1.241709257472519978e-01
4.384574398202340184e+00,1.436850197468630075e+00,-3.265696458082560039e+00,-3.183882606258349846e+00,1.259043678214399886e-01
4.448659412695089799e+00,1.559482913629669953e+00,-3.212758391161270044e+00,-3.168295462414360220e+00,1.277216240197180108e-01
4.512744427187840301e+00,1.681095380234969960e+00,-3.152310835070620154e+00,-3.151339071945510106e+00,1.296741440379479970e-01
4.576829441680589916e+00,1.801589872772709988e+00,-3.083894112388720021e+00,-3.132965348278999862e+00,1.316592968169869871e-01
4.640914456173340419e+00,1.920879389721930064e+00,-3.007085238328960131e+00,-3.113130441102589963e+00,1.336269490679860006e-01
4.704999470666090033e+00,2.038893719782500114e+00,-2.921519614923850039e+00,-3.091786362432789925e+00,1.365600487724970002e-01
4.769084485158839648e+00,2.155445697539180028e+00,-2.826946152188519967e+00,-3.068858168227050154e+00,1.416013369230139929e-01
4.833169499651590151e+00,2.270044214272540106e+00,-2.723306342875539965e+00,-3.044257325970550099e+00,1.486983253910049985e-01
4.897254514144339765e+00,2.381885027636990060e+00,-2.610809745042910190e+00,-3.017949351831219928e+00,1.567918038189189955e-01
4.961339528637090268e+00,2.489999985701309981e+00,-2.489999987856700070e+00,-2.990000108105450138e+00,1.645320781900390106e-01
5.006005697256609821e+00,2.562648967541790057e+00,-2.401357462962339984e+00,-2.969592501061629974e+00,1.692063459735209940e-01
5.050671865876119604e+00,2.632781164130579832e+00,-2.309552324363589815e+00,-2.948396100329710112e+00,1.730786168082580068e-01
5.095338034495640045e+00,2.700212513057060004e+00,-2.215080606336599978e+00,-2.926373592279570168e+00,1.761873432910860127e-01
5.140004203115159598e+00,2.764823946738530047e+00,-2.118474354799530168e+00,-2.903526907176599892e+00,1.786676040522300057e-01
5.184670371734680039e+00,2.826556545276820209e+00,-2.020273973228369879e+00,-2.879897976280580085e+00,1.806996693279419863e-01
5.229336540354199592e+00,2.885402422434189873e+00,-1.920999434231920100e+00,-2.855564988561340112e+00,1.824569875361859994e-01
5.274002708973720033e+00,2.941391738165029857e+00,-1.821119418603500018e+00,-2.830633121405839780e+00,1.840603692830949933e-01
5.318668877593239586e+00,2.994577144516819889e+00,-1.721017058677509981e+00,-2.805211846408369958e+00,1.855555248187699957e-01
5.363335046212760027e+00,3.045017975895759843e+00,-1.620959448517659940e+00,-2.779382354731569915e+00,1.869487764789979911e-01
5.408001214832279580e+00,3.092767619904030152e+00,-1.521101819562969970e+00,-2.753197593637839891e+00,1.882561546736619962e-01
5.452667383451800021e+00,3.137869260461239929e+00,-1.421531823893569912e+00,-2.726708693664840144e+00,1.894921517109630082e-01
5.497333552071319573e+00,3.180356338428659946e+00,-1.322304857601040107e+00,-2.699971740107209861e+00,1.906604455495070072e-01
5.541999720690840014e+00,3.220252283793319847e+00,-1.223456786734510082e+00,-2.673043617377980130e+00,1.917649893756699919e-01
5.586665889310359567e+00,3.257570691532230001e+00,-1.125012512891000016e+00,-2.645981271442439997e+00,1.928094032941130020e-01
5.631332057929880008e+00,3.292315839920130216e+00,-1.026991063977189977e+00,-2.618841234048559841e+00,1.937970999167870079e-01
5.675998226549399561e+00,3.324483331348929926e+00,-9.294083957964139886e-01,-2.591679294179130011e+00,1.947313894379320010e-01
5.720664395168920002e+00,3.354060792512170153e+00,-8.322790905818659990e-01,-2.564550408157650008e+00,1.956154660653489918e-01
5.765330563788440443e+00,3.381028526347349850e+00,-7.356172418889630471e-01,-2.537508644057810070e+00,1.964524522898639936e-01
5.809996732407959996e+00,3.405360105879479793e+00,-6.394370181842510270e-01,-2.510607194530760200e+00,1.972454012166700021e-01
5.854662901027480437e+00,3.427022855753219854e+00,-5.437529244998250411e-01,-2.483898379467790019e+00,1.979973223389059900e-01
5.899329069646999990e+00,3.445978234913070093e+00,-4.485799979481390198e-01,-2.457433659020869854e+00,1.987111847999520065e-01
5.943995238266520431e+00,3.462182093166199959e+00,-3.539338897499860193e-01,-2.431263623976029908e+00,1.993899295175070030e-01
5.988661406886039984e+00,3.475584818864680070e+00,-2.598309598752659988e-01,-2.405437975981420173e+00,2.000364715538029969e-01
6.033327575505560425e+00,3.486131365173160024e+00,-1.662883319021279949e-01,-2.380005482675040085e+00,2.006537081719320104e-01
6.077993744125079978e+00,3.493761176294539972e+00,-7.332397946789059873e-02,-2.355013916288169806e+00,2.012445281227830118e-01
6.122659912744600419e+00,3.498408025281479983e+00,1.904320084714470132e-02,-2.330509973090160170e+00,2.018118337685969876e-01
6.167326081364119972e+00,3.499999821649809828e+00,1.107932957486480047e-01,-2.306539190842169962e+00,2.023585855286300084e-01
6.211992249983640413e+00,3.498458261127010083e+00,2.019052514743779891e-01,-2.283147354211649827e+00,2.028878718964050032e-01
6.256658418603150196e+00,3.493698717283809874e+00,2.923567843811810119e-01,-2.260382025841079834e+00,2.034029574894579973e-01
6.301324587222680407e+00,3.485630970958859987e+00,3.821244974559789842e-01,-2.238291243954189991e+00,2.039072633795160072e-01
6.345990755842190190e+00,3.474160258115329913e+00,4.711840544260509911e-01,-2.216922191777670026e+00,2.044043088308949985e-01
6.390656924461709743e+00,3.459188213522149891e+00,5.595103260836079562e-01,-2.196321317491579883e+00,2.048976673063530041e-01
6.435323093081230184e+00,3.440613844631230211e+00,6.470775331522159446e-01,-2.176534469670909910e+00,2.053909537590800083e-01
6.479989261700749736e+00,3.418334504427159803e+00,7.338593932278569820e-01,-2.157607045546169999e+00,2.058878210045370083e-01
6.524655430320270177e+00,3.392246870092530120e+00,8.198292550921959521e-01,-2.139584154739929911e+00,2.063919810258849907e-01
6.569321598939789730e+00,3.362247942405029999e+00,9.049602464753629949e-01,-2.122510802740249947e+00,2.069072032021820051e-01
6.613987767559310171e+00,3.328236104865959888e+00,9.892254049443810482e-01,-2.106432100452769962e+00,2.074373978112659944e-01
6.658653936178829724e+00,3.290112268432320075e+00,1.072597860019560034e+00,-2.091393506828980176e+00,2.079865252277429966e-01
6.703320104798350165e+00,3.247781178893809795e+00,1.155050964821590087e+00,-2.077441109859659907e+00,2.085591226432970124e-01
6.747986273417869718e+00,3.201152890795750050e+00,1.236558654757970110e+00,-2.064621954749089827e+00,2.091597151506230101e-01
6.792652442037390159e+00,3.150144672621809860e+00,1.317095266253929919e+00,-2.052984482337380179e+00,2.097913786588539997e-01
6.837318610656909712e+00,3.094683276219759804e+00,1.396635769258760096e+00,-2.042578971116240094e+00,2.104608207701079980e-01
6.881984779276430153e+00,3.034707299745440068e+00,1.475158684215780003e+00,-2.033457707328750086e+00,2.111854870391799976e-01
6.926650947895949706e+00,2.970172006307790102e+00,1.552644199359840105e+00,-2.025674177250070152e+00,2.119880862215060002e-01
6.971317116515470147e+00,2.901060983644269786e+00,1.629054630571800111e+00,-2.019278963452970199e+00,2.128804071077159965e-01
7.015983285134989700e+00,2.827402357887410123e+00,1.704303765360859924e+00,-2.014318349899829830e+00,2.138721550104840108e-01
7.060649453754510141e+00,2.749281489184100202e+00,1.778241403673139986e+00,-2.010841575476539855e+00,2.150019966010570105e-01
7.105315622374029694e+00,2.666848555722180159e+00,1.850662347033299904e+00,-2.008909327017069923e+00,2.163459572915709950e-01
7.149981790993550135e+00,2.580323686603020139e+00,1.921329177071920080e+00,-2.008597949105619840e+00,2.180011760636209883e-01
7.194647959613069688e+00,2.489999989228090183e+00,1.989999990413610087e+00,-2.009999949482330184e+00,2.200587484879200084e-01
7.246657201523300174e+00,2.380544991025570045e+00,2.067167070845739918e+00,-2.013833096662089872e+00,2.230313054265669892e-01
7.298666443433529771e+00,2.267176809313930175e+00,2.141106414383379786e+00,-2.019916853894609954e+00,2.265811101687600082e-01
7.350675685343760257e+00,2.150703537850739977e+00,2.211684831988910194e+00,-2.028070527945220025e+00,2.305542475027790028e-01
7.402684927253989855e+00,2.031956735425569871e+00,2.278854257559320029e+00,-2.038155607321430196e+00,2.347062135462930077e-01
7.454694169164220341e+00,1.911743681954980012e+00,2.342636302535169968e+00,-2.050072414732579951e+00,2.387474980458799967e-01
